num crossings	time (s)	maj axis (mm)	min axis (mm)	theta (rad )	slope (V/s)
5831	5867.883704	70.554238	-31.185690	2.704227	16.514090
5833	5869.958782	70.775004	-30.918027	2.696608	17.644830
5835	5872.031856	70.478983	-31.480413	2.677980	19.556082
5839	5876.175234	69.932153	-30.996544	2.663761	23.155611
5841	5878.240086	70.255109	-31.453332	2.667259	26.076875
5843	5880.306225	70.026672	-30.676091	2.681823	20.749466
5845	5882.395905	69.368973	-31.703865	2.653169	15.234649
5847	5884.477447	70.233036	-30.705946	2.628752	22.373550
5849	5886.542074	69.861878	-30.747571	2.632676	26.620446
5851	5888.604798	70.146321	-30.677489	2.650011	21.694867
5853	5890.695371	69.233435	-31.184094	2.626597	16.925100
5855	5892.773771	69.859656	-30.447000	2.604021	25.086644
5857	5894.836542	69.723950	-30.482134	2.613730	27.956265
5859	5896.901456	69.472535	-30.592676	2.625897	22.459157
5861	5898.983597	68.799011	-30.562420	2.613078	17.604071
5863	5901.068111	68.963098	-30.888823	2.581515	19.810683
5867	5905.215870	69.345818	-30.066910	2.576946	25.704614
5869	5907.287737	68.451522	-30.832242	2.571278	28.063560
5871	5909.360830	69.338498	-30.045936	2.574879	28.133535
5873	5911.434227	68.678574	-30.096051	2.567533	28.709279
5875	5913.509327	68.344566	-30.225597	2.567609	28.703332
5877	5915.586039	68.797965	-29.847092	2.567741	25.952981
5881	5919.729946	68.421171	-30.166231	2.544213	19.955763
5883	5921.794249	68.888188	-29.926418	2.525662	21.055475
5885	5923.864926	68.717229	-29.964461	2.518840	25.958851
5887	5925.946591	67.929716	-29.433389	2.516522	31.737349
5889	5928.027790	68.063273	-29.860599	2.535880	28.022774
5891	5930.101437	68.509305	-29.844364	2.524778	23.054262
5893	5932.163894	68.561503	-29.748804	2.496442	20.974598
5895	5934.233650	67.850054	-29.629637	2.490870	28.178376
5897	5936.314880	67.511513	-29.299004	2.489447	31.951085
5899	5938.396774	67.959414	-29.519258	2.502169	31.266631
5901	5940.473435	67.591810	-29.693945	2.498385	27.338359
5903	5942.545083	67.877018	-28.957012	2.487730	23.529257
5907	5946.687056	67.419098	-29.165129	2.470750	23.273759
5909	5948.759910	67.253655	-29.337762	2.456700	23.276407
5911	5950.836368	67.377477	-29.380644	2.448676	23.463716
5913	5952.914048	67.290891	-28.766435	2.447251	24.859389
5917	5957.062875	67.227933	-28.936714	2.426246	33.277134
5919	5959.129343	67.394422	-29.139856	2.426064	35.768984
5921	5961.193417	67.689433	-29.270532	2.430891	33.232111
5923	5963.265392	67.241313	-28.787098	2.429307	28.356384
5925	5965.348325	66.656549	-28.424595	2.425868	23.977196
5927	5967.431841	66.767898	-28.346774	2.404528	28.222292
5929	5969.505540	67.049986	-28.495956	2.387498	34.104393
5931	5971.572388	67.220113	-28.411769	2.391137	37.494035
5933	5973.637887	67.096128	-28.865686	2.392345	36.195819
5937	5977.782808	66.568400	-28.214249	2.392934	29.375213
5939	5979.859458	66.729290	-28.006007	2.383209	28.274900
5941	5981.934369	66.404841	-27.972471	2.371324	27.941826
5943	5984.007803	65.949905	-28.340531	2.364159	27.748622
5945	5986.080110	66.026463	-28.649262	2.343161	29.363578
5949	5990.225167	66.176284	-27.788658	2.338996	34.253395
5951	5992.302429	65.877598	-28.160915	2.329661	38.041211
5953	5994.381739	66.094372	-27.764019	2.332915	40.291438
5955	5996.461707	65.961166	-27.679177	2.333921	38.447310
5959	6000.606426	66.042217	-27.893801	2.317279	30.253974
5961	6002.671579	66.050835	-27.578638	2.308082	30.414075
5963	6004.740835	65.781690	-27.286085	2.297272	34.970996
5965	6006.815578	65.522085	-27.553264	2.293462	38.609624
5967	6008.895022	65.722582	-27.137314	2.290532	42.458749
5969	6010.974687	65.209929	-27.485738	2.289386	41.766500
5971	6013.050525	65.540395	-27.329849	2.288422	41.251429
5973	6015.125512	65.481340	-27.119699	2.285173	39.151264
5977	6019.273350	65.620699	-27.096350	2.260471	38.774673
5979	6021.346204	65.507144	-27.019829	2.262925	38.500537
5981	6023.417830	65.204122	-26.747169	2.258725	41.382642
5983	6025.486692	64.978177	-27.249489	2.246432	44.467610
5985	6027.553576	65.878448	-26.846488	2.249954	43.901342
5987	6029.622784	65.301934	-26.576062	2.258032	43.201385
5989	6031.696391	64.982127	-26.552075	2.249808	37.159284
5991	6033.775569	64.491033	-26.618160	2.243868	33.753393
5993	6035.856789	64.033470	-26.385354	2.222932	34.629007
5995	6037.934219	64.470150	-26.736097	2.221444	37.796438
5999	6042.077561	64.847434	-26.215228	2.211783	44.854534
6001	6044.144785	64.685649	-26.135059	2.214076	47.214604
6003	6046.213564	64.634949	-26.545009	2.210598	46.105128
6007	6050.357732	64.331441	-26.086460	2.196007	43.077264
6009	6052.430596	64.192998	-25.911895	2.192358	42.462477
6011	6054.505170	64.261894	-25.939517	2.174491	44.510076
6013	6056.580339	64.182394	-25.586660	2.176990	46.050861
6015	6058.657590	64.222933	-25.584573	2.171525	48.230107
6017	6060.736238	64.222253	-25.331434	2.175073	49.625959
6019	6062.813818	63.250612	-25.956149	2.178133	48.597766
6021	6064.889728	63.778920	-25.279828	2.172461	44.917795
6025	6069.031058	63.682693	-25.447697	2.146349	39.131153
6027	6071.099076	63.415985	-25.453736	2.141976	38.804393
6029	6073.168478	63.420562	-25.274924	2.136037	41.786115
6031	6075.239749	63.393098	-25.245572	2.130948	43.831290
6035	6079.389525	63.721594	-24.657196	2.123559	51.051310
6037	6081.467059	63.233457	-24.843954	2.115021	52.438734
6039	6083.542967	63.479942	-24.524499	2.117860	51.258076
6041	6085.619099	63.295032	-24.469963	2.110746	50.723150
6045	6089.766771	63.307042	-24.709767	2.092728	51.616713
6047	6091.838817	62.701610	-24.645697	2.089213	53.018665
6049	6093.909834	63.577261	-24.710791	2.078292	51.491658
6051	6095.979211	63.176780	-24.300428	2.087142	53.639039
6055	6100.119806	62.735176	-24.309245	2.090309	50.780012
6057	6102.193129	62.944465	-24.316808	2.070667	46.512684
6059	6104.267928	62.535529	-24.007144	2.067338	46.355926
6061	6106.345465	62.442254	-23.711502	2.072984	44.438056
6065	6110.500296	62.207827	-23.307551	2.051522	44.892084
6067	6112.577013	62.100243	-23.724802	2.040971	47.109384
6069	6114.651118	61.903970	-23.810216	2.039369	51.834326
6071	6116.722761	62.114584	-24.288193	2.032378	54.584320
6075	6120.861362	62.264905	-23.466548	2.023647	57.637266
6077	6122.930791	61.788883	-24.535061	2.040214	56.483323
6079	6125.002007	62.507362	-23.083034	2.026388	55.740041
6083	6129.147944	61.605101	-23.108528	2.013406	55.373162
6085	6131.222905	61.835000	-23.213220	2.003803	56.673095
6087	6133.298944	61.322486	-23.161838	1.996506	56.864122
6091	6137.452921	61.540053	-22.391223	2.007995	55.445355
6093	6139.528895	61.374571	-22.409487	1.999298	55.722616
6095	6141.603266	61.943132	-22.439701	1.994790	53.235991
6097	6143.674977	61.986637	-21.767254	2.005448	52.242683
6099	6145.746431	61.755718	-21.932295	1.989881	51.090490
6101	6147.816666	61.038679	-21.913469	1.974024	50.584571
6105	6151.957692	61.308843	-21.453851	1.978544	50.555769
6107	6154.028926	60.986536	-21.385059	1.970565	51.982962
6109	6156.100645	61.117202	-21.310140	1.970774	52.338237
6111	6158.172085	61.333965	-21.356811	1.957532	52.659292
6113	6160.244820	60.682287	-21.299539	1.958044	55.502110
6115	6162.317599	60.840719	-21.640628	1.955942	57.038793
6117	6164.391752	60.790143	-21.244025	1.949892	57.820302
6121	6168.540501	61.094064	-21.058688	1.936021	60.536636
