num crossings	time (s)	maj axis (mm)	min axis (mm)	theta (rad )	slope (V/s)
5427	5446.934432	66.537867	29.995773	-0.362340	23.659362
5431	5451.063858	66.041706	30.336322	-0.386440	20.083967
5433	5453.139122	66.013337	30.113489	-0.367061	18.137864
5435	5455.220696	65.626387	29.786650	-0.365060	15.601652
5437	5457.300880	65.446609	30.395761	-0.351722	16.918345
5441	5461.451075	65.571542	29.879959	-0.347569	17.779319
5443	5463.524237	65.718442	29.636951	-0.341850	17.278044
5445	5465.595583	65.248677	29.971051	-0.333094	17.060657
5447	5467.661735	65.342224	30.113229	-0.323308	17.742391
5449	5469.729620	65.799028	29.408579	-0.322616	19.613413
5451	5471.803828	65.430035	29.531656	-0.306101	23.742581
5453	5473.883383	64.840516	29.199936	-0.318204	27.381834
5457	5478.043102	65.338407	29.537825	-0.304123	20.752701
5459	5480.106431	65.360024	29.177840	-0.298905	19.033237
5461	5482.172198	65.045618	29.182967	-0.279242	21.837093
5463	5484.247799	64.747267	29.137259	-0.272896	27.525227
5465	5486.329336	64.622901	29.366477	-0.280706	28.036269
5467	5488.411537	64.835159	29.261218	-0.276240	26.456253
5469	5490.487502	64.964599	28.912188	-0.273964	23.756267
5471	5492.559768	64.461860	29.642501	-0.254441	20.757806
5473	5494.630761	64.722682	28.655415	-0.263663	19.353991
5475	5496.702728	64.761010	28.360941	-0.262176	20.273546
5477	5498.776852	64.882349	28.364081	-0.254091	19.983976
5479	5500.851277	64.312899	28.344172	-0.245014	20.779761
5481	5502.929397	64.501976	28.253638	-0.240701	20.121969
5483	5505.006385	64.583052	27.951958	-0.235201	22.805926
5485	5507.080587	64.376220	28.757648	-0.215235	26.990357
5487	5509.148936	64.832690	27.979454	-0.222039	30.640134
5489	5511.214645	64.837300	28.071017	-0.219694	31.955141
5493	5515.355057	64.040822	28.126045	-0.223479	24.404981
5495	5517.437086	63.369781	28.182081	-0.203187	21.518401
5497	5519.521818	63.745159	28.054537	-0.203065	24.395514
5499	5521.596821	64.313219	27.354282	-0.191754	29.247710
5503	5525.728860	64.055098	27.332754	-0.194446	32.914047
5505	5527.798012	63.468013	27.772275	-0.196713	31.116599
5507	5529.870184	63.693330	27.088113	-0.190552	27.598306
5509	5531.944430	63.416133	27.475027	-0.184477	28.425986
5511	5534.018998	63.825820	27.013514	-0.177078	26.121706
5513	5536.092268	63.909796	26.737532	-0.177984	26.598636
5517	5540.239026	63.182082	26.916509	-0.146838	29.948612
5519	5542.313477	63.521411	26.719594	-0.147142	32.826337
5521	5544.391896	63.234422	26.423287	-0.151952	36.522108
5523	5546.472256	63.168722	26.695466	-0.151568	35.762972
5525	5548.552013	63.686194	26.606033	-0.152544	33.613927
5529	5552.693084	63.791198	26.442239	-0.141327	26.615503
5531	5554.759586	63.630774	26.101737	-0.129943	28.198984
5533	5556.828530	63.126417	26.391452	-0.115727	31.370400
5535	5558.902629	62.934134	26.216100	-0.119438	34.947575
5537	5560.980994	62.696794	25.904967	-0.117092	39.111027
5541	5565.137130	63.149458	25.811118	-0.110936	38.916159
5543	5567.212443	63.309369	25.652848	-0.112258	38.256316
5545	5569.286509	62.930358	25.806299	-0.100073	38.024925
5547	5571.359256	63.083218	25.372710	-0.100284	39.232097
5551	5575.499284	63.076365	25.158651	-0.092137	39.835319
5553	5577.567581	62.833426	25.328850	-0.087653	41.551758
5555	5579.636705	62.501505	25.473309	-0.089436	37.506068
5557	5581.711102	62.715841	24.990659	-0.088031	33.641305
5559	5583.790606	62.297348	25.021978	-0.077268	30.457948
5561	5585.872338	62.203746	25.011725	-0.068538	31.296075
5565	5590.025131	62.677674	24.570776	-0.055687	38.210600
5567	5592.096155	61.971753	24.708879	-0.041014	42.456526
5569	5594.164353	62.539277	24.662516	-0.055857	44.861640
5571	5596.233103	62.441776	24.403427	-0.056543	44.711730
5575	5600.374073	61.949894	24.276406	-0.046730	41.944819
5577	5602.446004	62.229211	24.245951	-0.041252	40.560432
5579	5604.519203	62.234694	24.200386	-0.041464	39.886485
5581	5606.593011	61.506325	24.351595	-0.032819	40.030244
5583	5608.666452	61.431459	23.973644	-0.027552	41.961146
5587	5612.816649	62.093337	24.037664	-0.016425	45.004546
5589	5614.893181	62.099113	23.638291	-0.018594	46.398915
5591	5616.971336	62.005099	23.647447	-0.018446	45.880403
5593	5619.048642	62.048021	23.523313	-0.016960	45.537676
5597	5623.199180	61.908689	23.482424	-0.001003	39.843324
5599	5625.269190	62.046143	23.188522	-0.012033	38.983475
5601	5627.337902	61.493405	23.207211	0.000852	38.163448
5603	5629.406105	61.616007	22.867369	0.007962	38.987756
5605	5631.474963	61.739553	22.938982	0.014786	41.619221
5607	5633.547393	61.380235	22.817496	0.016645	43.831628
5609	5635.622026	61.272090	22.868305	0.023790	47.637829
5611	5637.697818	60.840145	22.797982	0.017546	48.185731
5613	5639.773489	61.188316	22.747395	0.023637	50.874745
5615	5641.847966	61.331537	22.572203	0.024929	49.318421
5617	5643.921927	61.337908	22.672647	0.031390	49.745231
5619	5645.993506	61.155960	22.485454	0.033333	49.750999
5621	5648.063943	61.505458	22.441445	0.034753	50.729753
5623	5650.134115	61.116545	22.503466	0.037756	48.616248
5625	5652.205771	60.958197	21.886765	0.025953	46.693796
5627	5654.279850	60.709107	22.086210	0.036006	43.258539
5631	5658.434873	60.525877	21.531018	0.041454	41.879109
5633	5660.512548	60.294915	21.671188	0.047298	43.077799
5635	5662.589388	60.151885	21.838876	0.064295	43.561247
5637	5664.663739	60.689147	21.541154	0.058159	46.452028
5639	5666.737817	60.801996	21.393215	0.060541	49.001117
5641	5668.810637	60.628958	21.486643	0.067529	48.805391
5643	5670.881885	60.651882	21.167894	0.063820	50.360863
5645	5672.953262	60.684397	21.427621	0.074096	51.130935
5647	5675.023698	60.141685	21.255315	0.069657	51.951743
5651	5679.165655	60.233673	20.862778	0.071592	53.255649
5653	5681.236681	60.403150	20.896064	0.079606	53.493180
5655	5683.308818	60.111966	20.846198	0.086098	51.752675
5657	5685.380627	60.088323	20.657380	0.082299	51.716966
5659	5687.453425	60.395807	20.544305	0.088771	52.049960
5661	5689.527012	59.536843	21.171248	0.087667	52.188380
5663	5691.600388	60.123206	20.418783	0.093926	52.082015
5665	5693.674700	60.106821	20.459907	0.100919	54.275379
5667	5695.749640	59.740586	20.326400	0.095141	53.948978
5669	5697.824971	60.112069	20.207292	0.099437	53.391077
5671	5699.900676	59.876088	20.398797	0.104665	52.680984
5673	5701.975603	59.146638	20.211887	0.105859	54.629938
5677	5706.126126	58.946576	19.894472	0.109407	53.504449
5679	5708.200559	59.903329	19.964505	0.115923	52.963782
5681	5710.274735	59.439896	19.667788	0.111968	52.773846
5683	5712.348172	59.122517	19.510655	0.111064	51.388915
5685	5714.421109	59.436626	19.508409	0.127325	50.801235
5689	5718.563008	59.419586	19.586926	0.128322	49.210726
5691	5720.632781	59.281794	19.016598	0.126010	48.444656
5693	5722.702431	59.191283	19.109472	0.135888	49.830269
5695	5724.771491	59.506441	18.891390	0.130113	50.693823
5697	5726.842177	58.915786	18.876946	0.143424	52.018105
5701	5730.987573	58.584598	18.896909	0.150298	53.206113
5703	5733.061429	58.434179	19.313963	0.150963	52.957451
5705	5735.135858	58.887523	18.754210	0.144493	53.641167
5707	5737.208992	58.902267	18.650370	0.150034	54.796204
5711	5741.353145	58.759050	18.552480	0.151171	54.202760
5713	5743.424588	57.943341	18.302379	0.146036	54.178794
5715	5745.497106	58.447433	18.115494	0.154744	52.657537
5717	5747.570886	58.094486	18.206013	0.163619	51.435679
